# column 1: wavelength (micron)
# column 2: total flux; F_nu (Jy)
# column 3: transparent flux; F_nu (Jy)
# column 4: direct primary flux; F_nu (Jy)
# column 5: scattered primary flux; F_nu (Jy)
# column 6: direct secondary flux; F_nu (Jy)
# column 7: scattered secondary flux; F_nu (Jy)
9.000000000e-02 6.837472143e-09 3.392950745e-02 5.807372291e-09 1.030099852e-09 0.000000000e+00 0.000000000e+00
9.541091806e-02 2.065551839e-07 1.751702149e-01 1.694308558e-07 3.712432805e-08 0.000000000e+00 0.000000000e+00
1.011471476e-01 2.727225650e-06 2.058943931e-01 2.239927603e-06 4.872980473e-07 0.000000000e+00 0.000000000e+00
1.072282468e-01 1.611942579e-05 2.208426450e-01 1.279398007e-05 3.325445721e-06 0.000000000e+00 0.000000000e+00
1.136749497e-01 2.912597621e-05 2.144448064e-01 2.265972999e-05 6.466246216e-06 0.000000000e+00 0.000000000e+00
1.205092367e-01 1.217617700e-05 1.911300889e-01 9.323839902e-06 2.852337095e-06 0.000000000e+00 0.000000000e+00
1.277544101e-01 4.836630808e-05 1.992895883e-01 3.663139669e-05 1.173491139e-05 0.000000000e+00 0.000000000e+00
1.354351729e-01 7.375074155e-05 1.912060219e-01 5.623863863e-05 1.751210292e-05 0.000000000e+00 0.000000000e+00
1.435777131e-01 9.053279531e-05 1.771540169e-01 7.025371570e-05 2.027907962e-05 0.000000000e+00 0.000000000e+00
1.522097936e-01 1.035127269e-04 1.683529613e-01 7.975054547e-05 2.376218145e-05 0.000000000e+00 0.000000000e+00
1.613608460e-01 1.084930354e-04 1.607005022e-01 8.344802926e-05 2.504500615e-05 0.000000000e+00 0.000000000e+00
1.710620718e-01 1.126094378e-04 1.561435029e-01 8.613875806e-05 2.647067974e-05 0.000000000e+00 0.000000000e+00
1.813465479e-01 1.071982637e-04 1.486137936e-01 8.316829062e-05 2.402997311e-05 0.000000000e+00 0.000000000e+00
1.922493402e-01 9.536487769e-05 1.389245397e-01 7.587439463e-05 1.949048306e-05 0.000000000e+00 0.000000000e+00
2.038076228e-01 8.073348231e-05 1.305875618e-01 6.569871878e-05 1.503476353e-05 0.000000000e+00 0.000000000e+00
2.160608044e-01 7.614153115e-05 1.266386926e-01 6.218322381e-05 1.395830734e-05 0.000000000e+00 0.000000000e+00
2.290506634e-01 9.215995748e-05 1.194128036e-01 7.344993495e-05 1.871002253e-05 0.000000000e+00 0.000000000e+00
2.428214897e-01 1.172202460e-04 1.105718318e-01 9.001702887e-05 2.720321714e-05 0.000000000e+00 0.000000000e+00
2.574202362e-01 1.514479680e-04 1.040728240e-01 1.144847595e-04 3.696320851e-05 0.000000000e+00 0.000000000e+00
2.728966785e-01 1.900157732e-04 9.675100081e-02 1.418043478e-04 4.821142535e-05 0.000000000e+00 0.000000000e+00
2.893035848e-01 2.329229917e-04 9.054344200e-02 1.727900469e-04 6.013294482e-05 0.000000000e+00 0.000000000e+00
3.066968958e-01 2.891680352e-04 8.395774895e-02 2.096254067e-04 7.954262847e-05 0.000000000e+00 0.000000000e+00
3.251359155e-01 3.472437353e-04 7.630719400e-02 2.427035019e-04 1.045402335e-04 0.000000000e+00 0.000000000e+00
3.446835132e-01 4.290302371e-04 7.047933695e-02 2.867354155e-04 1.422948216e-04 0.000000000e+00 0.000000000e+00
3.654063382e-01 5.332952702e-04 6.674317944e-02 3.429862722e-04 1.903089980e-04 0.000000000e+00 0.000000000e+00
3.873750465e-01 9.889009389e-04 7.407189764e-02 6.564829417e-04 3.324179972e-04 0.000000000e+00 0.000000000e+00
4.106645425e-01 1.372609834e-03 7.310735833e-02 9.045988305e-04 4.680110038e-04 0.000000000e+00 0.000000000e+00
4.353542335e-01 1.577144025e-03 6.732352854e-02 9.880516426e-04 5.890923821e-04 0.000000000e+00 0.000000000e+00
4.615283011e-01 1.929368205e-03 6.299616134e-02 1.174670368e-03 7.546978373e-04 0.000000000e+00 0.000000000e+00
4.892759879e-01 2.171450471e-03 5.678797604e-02 1.277260189e-03 8.941902825e-04 0.000000000e+00 0.000000000e+00
5.186919022e-01 2.549196189e-03 5.250436849e-02 1.485073363e-03 1.064122826e-03 0.000000000e+00 0.000000000e+00
5.498763397e-01 2.977960431e-03 4.889552750e-02 1.748766185e-03 1.229194246e-03 0.000000000e+00 0.000000000e+00
5.829356266e-01 3.433123633e-03 4.491153897e-02 2.045057481e-03 1.388066153e-03 0.000000000e+00 0.000000000e+00
6.179824811e-01 3.929286660e-03 4.259530122e-02 2.385982800e-03 1.543303861e-03 0.000000000e+00 0.000000000e+00
6.551363985e-01 4.382814432e-03 3.957296209e-02 2.730012535e-03 1.652801897e-03 0.000000000e+00 0.000000000e+00
6.945240582e-01 4.957419400e-03 3.742559028e-02 3.197507574e-03 1.759911826e-03 0.000000000e+00 0.000000000e+00
7.362797556e-01 5.438149567e-03 3.448960214e-02 3.634636753e-03 1.803512814e-03 0.000000000e+00 0.000000000e+00
7.805458603e-01 5.956885828e-03 3.222190024e-02 4.118280874e-03 1.838604954e-03 0.000000000e+00 0.000000000e+00
8.274733014e-01 6.410358823e-03 2.998077772e-02 4.576230628e-03 1.834128195e-03 0.000000000e+00 0.000000000e+00
8.772220817e-01 7.020506837e-03 2.877614238e-02 5.162250165e-03 1.858256672e-03 0.000000000e+00 0.000000000e+00
9.299618239e-01 7.576656862e-03 2.740215123e-02 5.753730432e-03 1.822926430e-03 0.000000000e+00 0.000000000e+00
9.858723487e-01 7.955394407e-03 2.560235446e-02 6.230079833e-03 1.725314574e-03 9.960527523e-86 3.348636263e-86
1.045144288e+00 8.144608119e-03 2.345605709e-02 6.548267050e-03 1.596341069e-03 1.540137966e-80 4.646069695e-81
1.107979733e+00 8.125710864e-03 2.129550952e-02 6.681543334e-03 1.444167529e-03 1.195280596e-75 3.164620911e-76
1.174592928e+00 8.178912358e-03 1.963589153e-02 6.863453538e-03 1.315458821e-03 5.338703329e-71 1.197958017e-71
1.245210996e+00 8.049114467e-03 1.783072252e-02 6.905057653e-03 1.144056813e-03 1.189539021e-66 2.338214198e-67
1.320074714e+00 7.974812874e-03 1.635673984e-02 6.981396000e-03 9.934168748e-04 1.520883842e-62 2.442119459e-63
1.399439338e+00 7.815960579e-03 1.497075280e-02 6.972222226e-03 8.437383536e-04 1.034512408e-58 1.453041148e-59
1.483575466e+00 7.747538153e-03 1.396781560e-02 7.011115537e-03 7.364226160e-04 4.919332579e-55 5.956940566e-56
1.572769969e+00 7.632006713e-03 1.299880207e-02 6.995658714e-03 6.363479988e-04 1.289679676e-51 1.411157696e-52
1.667326963e+00 7.593281420e-03 1.231589059e-02 7.042116607e-03 5.511648135e-04 2.243695843e-48 2.035530029e-49
1.767568847e+00 7.220453186e-03 1.120588353e-02 6.768170974e-03 4.522822128e-04 2.320950947e-45 1.796594155e-46
1.873837405e+00 6.845671948e-03 1.024144121e-02 6.476926527e-03 3.687454206e-04 1.827242083e-42 1.174939850e-43
1.986494968e+00 6.500159700e-03 9.378975277e-03 6.197577792e-03 3.025819077e-04 9.079603557e-40 5.047541685e-41
2.105925651e+00 6.097246271e-03 8.522694563e-03 5.852457195e-03 2.447890757e-04 3.069680686e-37 1.463956449e-38
2.232536664e+00 5.716777373e-03 7.777991892e-03 5.517436441e-03 1.993409313e-04 7.517312823e-35 3.091452591e-36
2.366759696e+00 5.307137187e-03 7.037703695e-03 5.149703677e-03 1.574335104e-04 1.335593485e-32 4.695607412e-34
2.509052394e+00 4.826220485e-03 6.264097663e-03 4.703930133e-03 1.222903518e-04 1.846261584e-30 5.291688233e-32
2.659899915e+00 4.570656732e-03 5.794537531e-03 4.473519072e-03 9.713765955e-05 1.676631920e-28 4.136107663e-30
2.819816587e+00 4.252162674e-03 5.269024189e-03 4.176823959e-03 7.533871494e-05 1.321417371e-26 2.700888393e-28
2.989347660e+00 3.850971672e-03 4.699719658e-03 3.792842286e-03 5.812938659e-05 8.166202034e-25 1.401394607e-26
3.169071162e+00 3.516317246e-03 4.219865670e-03 3.472075315e-03 4.424193125e-05 3.721656002e-23 5.264184058e-25
3.359599877e+00 3.234295091e-03 3.814325090e-03 3.201055512e-03 3.323957831e-05 1.302984363e-21 1.535175779e-23
3.561583429e+00 3.003452448e-03 3.490866033e-03 2.978201182e-03 2.525126610e-05 3.947950627e-20 3.821414424e-22
3.775710497e+00 2.693892701e-03 3.098845565e-03 2.675015108e-03 1.887759324e-05 9.643988995e-19 7.639820823e-21
4.002711165e+00 2.433132998e-03 2.765838071e-03 2.419163964e-03 1.396903458e-05 2.016276633e-17 1.310159904e-19
4.243359411e+00 2.252795880e-03 2.531878181e-03 2.242332295e-03 1.046358554e-05 3.354731192e-16 1.779591274e-18
4.498475745e+00 1.993016283e-03 2.222372276e-03 1.985394686e-03 7.621597633e-06 4.850669230e-15 2.080460193e-17
4.768930007e+00 1.797723084e-03 1.987843130e-03 1.792169694e-03 5.553389547e-06 5.747778483e-14 1.996525296e-16
5.055644335e+00 1.626126456e-03 1.784756912e-03 1.622082178e-03 4.044278178e-06 5.910341123e-13 1.658630538e-15
5.359596304e+00 1.480129082e-03 1.613315742e-03 1.477177962e-03 2.951114636e-06 5.437056984e-12 1.223307173e-14
5.681822265e+00 1.333763598e-03 1.444369187e-03 1.331653653e-03 2.109901720e-06 4.249323959e-11 7.651043015e-14
6.023420872e+00 1.209875103e-03 1.303602272e-03 1.208356389e-03 1.518419767e-06 2.934990073e-10 4.214440391e-13
6.385556837e+00 1.089630221e-03 1.169049658e-03 1.088547778e-03 1.080595605e-06 1.845145685e-09 2.091908405e-12
6.769464890e+00 9.755704034e-04 1.042824610e-03 9.747999880e-04 7.602601495e-07 1.014615107e-08 9.080083545e-12
7.176453999e+00 8.699182013e-04 9.281982658e-04 8.693380542e-04 5.292106974e-07 5.090086702e-08 3.552569386e-11
7.607911827e+00 7.755699938e-04 8.352659947e-04 7.749782635e-04 3.625142105e-07 2.290917529e-07 1.243779271e-10
8.065309466e+00 6.707840708e-04 7.535785279e-04 6.695575322e-04 2.400463507e-07 9.860739844e-07 4.182532151e-10
8.550206451e+00 5.506555499e-04 6.641515790e-04 5.465268092e-04 1.539132654e-07 3.973461648e-06 1.365790699e-09
9.064256079e+00 4.787053813e-04 6.075522842e-04 4.635665770e-04 1.077498150e-07 1.502657981e-05 4.474653717e-09
9.609211044e+00 4.491403084e-04 5.391162451e-04 3.944587639e-04 8.062871463e-08 5.458638329e-05 1.453249507e-08
1.018692942e+01 5.426397438e-04 4.863502740e-04 3.684034491e-04 6.412615055e-08 1.741327731e-04 3.939551494e-08
1.079938098e+01 8.430853997e-04 4.250701940e-04 3.390321837e-04 4.890379458e-08 5.039108883e-04 9.342384913e-08
1.144865393e+01 1.664174478e-03 3.739512454e-04 3.132534089e-04 3.588655668e-08 1.350688018e-03 1.971646391e-07
1.213696202e+01 3.515296297e-03 3.362639613e-04 2.920453874e-04 2.338356716e-08 3.222936365e-03 2.911606332e-07
1.286665210e+01 7.682134140e-03 2.962880904e-04 2.653476310e-04 3.644969019e-09 7.416706241e-03 7.662337026e-08
1.364021210e+01 1.622253755e-02 2.621435148e-04 2.395204175e-04 4.708342263e-10 1.598301637e-02 2.906050134e-10
1.446027954e+01 3.487844912e-02 2.304676971e-04 2.116036524e-04 2.542855370e-11 3.466684545e-02 7.498636555e-35
1.532965052e+01 7.701541587e-02 2.044617139e-04 1.860495519e-04 0.000000000e+00 7.682936632e-02 0.000000000e+00
1.625128922e+01 1.730691803e-01 1.819421456e-04 1.632100182e-04 0.000000000e+00 1.729059703e-01 0.000000000e+00
1.722833804e+01 3.508153211e-01 1.610990250e-04 1.425710248e-04 0.000000000e+00 3.506727501e-01 0.000000000e+00
1.826412832e+01 6.638722244e-01 1.429283145e-04 1.258084862e-04 0.000000000e+00 6.637464159e-01 0.000000000e+00
1.936219168e+01 1.184322971e+00 1.261835685e-04 1.115145378e-04 0.000000000e+00 1.184211456e+00 0.000000000e+00
2.052627204e+01 1.907748433e+00 1.113436917e-04 9.951674952e-05 0.000000000e+00 1.907648916e+00 0.000000000e+00
2.176033844e+01 2.992520553e+00 9.933992221e-05 8.972561987e-05 0.000000000e+00 2.992430827e+00 0.000000000e+00
2.306859853e+01 4.451033707e+00 8.786019848e-05 8.012299440e-05 0.000000000e+00 4.450953584e+00 0.000000000e+00
2.445551294e+01 6.506062659e+00 7.823827655e-05 7.188843376e-05 0.000000000e+00 6.505990771e+00 0.000000000e+00
2.592581045e+01 9.215625041e+00 6.990373624e-05 6.464152664e-05 0.000000000e+00 9.215560399e+00 0.000000000e+00
2.748450419e+01 1.253675929e+01 6.213688782e-05 5.780267973e-05 0.000000000e+00 1.253670149e+01 0.000000000e+00
2.913690863e+01 1.665106766e+01 5.554166224e-05 5.193342322e-05 0.000000000e+00 1.665101573e+01 0.000000000e+00
3.088865780e+01 2.147837664e+01 4.932517461e-05 4.635099761e-05 0.000000000e+00 2.147833029e+01 0.000000000e+00
3.274572442e+01 2.668049500e+01 4.380353449e-05 4.135296532e-05 0.000000000e+00 2.668045365e+01 0.000000000e+00
3.471444033e+01 3.245946221e+01 3.868495160e-05 3.667617937e-05 0.000000000e+00 3.245942553e+01 0.000000000e+00
3.680151802e+01 3.801671665e+01 3.474145000e-05 3.307093781e-05 0.000000000e+00 3.801668358e+01 0.000000000e+00
3.901407356e+01 4.356403001e+01 3.094195841e-05 2.957273890e-05 0.000000000e+00 4.356400043e+01 0.000000000e+00
4.135965084e+01 4.851702189e+01 2.762072590e-05 2.650253277e-05 0.000000000e+00 4.851699539e+01 0.000000000e+00
4.384624730e+01 5.260748515e+01 2.436124399e-05 2.346443170e-05 0.000000000e+00 5.260746169e+01 0.000000000e+00
4.648234121e+01 5.609420139e+01 2.152003492e-05 2.080240859e-05 0.000000000e+00 5.609418059e+01 0.000000000e+00
4.927692053e+01 5.829597236e+01 1.918522921e-05 1.860723518e-05 0.000000000e+00 5.829595375e+01 0.000000000e+00
5.223951363e+01 5.990079437e+01 1.702392589e-05 1.656387350e-05 0.000000000e+00 5.990077781e+01 0.000000000e+00
5.538022172e+01 6.015813993e+01 1.514085867e-05 1.477363357e-05 0.000000000e+00 6.015812516e+01 0.000000000e+00
5.870975330e+01 5.982896700e+01 1.343660873e-05 1.314663358e-05 0.000000000e+00 5.982895385e+01 0.000000000e+00
6.223946068e+01 5.912004731e+01 1.199210990e-05 1.176075433e-05 0.000000000e+00 5.912003555e+01 0.000000000e+00
6.598137870e+01 5.747803831e+01 1.066316619e-05 1.048023386e-05 0.000000000e+00 5.747802783e+01 0.000000000e+00
6.994826574e+01 5.522033784e+01 9.554095695e-06 9.408136250e-06 0.000000000e+00 5.522032844e+01 0.000000000e+00
7.415364723e+01 5.307821383e+01 8.420517320e-06 8.306384983e-06 0.000000000e+00 5.307820553e+01 0.000000000e+00
7.861186177e+01 5.091320932e+01 7.456670875e-06 7.366617209e-06 0.000000000e+00 5.091320195e+01 0.000000000e+00
8.333811002e+01 4.815881432e+01 6.648489152e-06 6.577385551e-06 0.000000000e+00 4.815880774e+01 0.000000000e+00
8.834850651e+01 4.593877220e+01 5.910897530e-06 5.854803918e-06 0.000000000e+00 4.593876635e+01 0.000000000e+00
9.366013462e+01 4.327549951e+01 5.265303784e-06 5.220961752e-06 0.000000000e+00 4.327549429e+01 0.000000000e+00
9.929110477e+01 4.110416783e+01 2.995541275e-06 2.972569811e-06 0.000000000e+00 4.110416486e+01 0.000000000e+00
1.052606162e+02 3.864309770e+01 0.000000000e+00 0.000000000e+00 0.000000000e+00 3.864309770e+01 0.000000000e+00
1.115890226e+02 3.652415698e+01 0.000000000e+00 0.000000000e+00 0.000000000e+00 3.652415698e+01 0.000000000e+00
1.182979010e+02 3.471853630e+01 0.000000000e+00 0.000000000e+00 0.000000000e+00 3.471853630e+01 0.000000000e+00
1.254101260e+02 3.299080870e+01 0.000000000e+00 0.000000000e+00 0.000000000e+00 3.299080870e+01 0.000000000e+00
1.329499472e+02 3.124325762e+01 0.000000000e+00 0.000000000e+00 0.000000000e+00 3.124325762e+01 0.000000000e+00
1.409430725e+02 2.991018409e+01 0.000000000e+00 0.000000000e+00 0.000000000e+00 2.991018409e+01 0.000000000e+00
1.494167549e+02 2.839953172e+01 0.000000000e+00 0.000000000e+00 0.000000000e+00 2.839953172e+01 0.000000000e+00
1.583998862e+02 2.710292838e+01 0.000000000e+00 0.000000000e+00 0.000000000e+00 2.710292838e+01 0.000000000e+00
1.679230951e+02 2.573996885e+01 0.000000000e+00 0.000000000e+00 0.000000000e+00 2.573996885e+01 0.000000000e+00
1.780188519e+02 2.439836065e+01 0.000000000e+00 0.000000000e+00 0.000000000e+00 2.439836065e+01 0.000000000e+00
1.887215788e+02 2.325339993e+01 0.000000000e+00 0.000000000e+00 0.000000000e+00 2.325339993e+01 0.000000000e+00
2.000677676e+02 2.194116219e+01 0.000000000e+00 0.000000000e+00 0.000000000e+00 2.194116219e+01 0.000000000e+00
2.120961043e+02 2.067063460e+01 0.000000000e+00 0.000000000e+00 0.000000000e+00 2.067063460e+01 0.000000000e+00
2.248476003e+02 1.939844906e+01 0.000000000e+00 0.000000000e+00 0.000000000e+00 1.939844906e+01 0.000000000e+00
2.383657330e+02 1.795003994e+01 0.000000000e+00 0.000000000e+00 0.000000000e+00 1.795003994e+01 0.000000000e+00
2.526965935e+02 1.684317250e+01 0.000000000e+00 0.000000000e+00 0.000000000e+00 1.684317250e+01 0.000000000e+00
2.678890442e+02 1.552867295e+01 0.000000000e+00 0.000000000e+00 0.000000000e+00 1.552867295e+01 0.000000000e+00
2.839948849e+02 1.423163570e+01 0.000000000e+00 0.000000000e+00 0.000000000e+00 1.423163570e+01 0.000000000e+00
3.010690299e+02 1.304994351e+01 0.000000000e+00 0.000000000e+00 0.000000000e+00 1.304994351e+01 0.000000000e+00
3.191696949e+02 1.165382993e+01 0.000000000e+00 0.000000000e+00 0.000000000e+00 1.165382993e+01 0.000000000e+00
3.383585957e+02 1.039696479e+01 0.000000000e+00 0.000000000e+00 0.000000000e+00 1.039696479e+01 0.000000000e+00
3.587011583e+02 9.356469845e+00 0.000000000e+00 0.000000000e+00 0.000000000e+00 9.356469845e+00 0.000000000e+00
3.802667425e+02 8.437668497e+00 0.000000000e+00 0.000000000e+00 0.000000000e+00 8.437668497e+00 0.000000000e+00
4.031288779e+02 7.270697772e+00 0.000000000e+00 0.000000000e+00 0.000000000e+00 7.270697772e+00 0.000000000e+00
4.273655148e+02 6.322683430e+00 0.000000000e+00 0.000000000e+00 0.000000000e+00 6.322683430e+00 0.000000000e+00
4.530592901e+02 5.585032579e+00 0.000000000e+00 0.000000000e+00 0.000000000e+00 5.585032579e+00 0.000000000e+00
4.802978090e+02 4.798600766e+00 0.000000000e+00 0.000000000e+00 0.000000000e+00 4.798600766e+00 0.000000000e+00
5.091739433e+02 4.110754952e+00 0.000000000e+00 0.000000000e+00 0.000000000e+00 4.110754952e+00 0.000000000e+00
5.397861487e+02 3.554697913e+00 0.000000000e+00 0.000000000e+00 0.000000000e+00 3.554697913e+00 0.000000000e+00
5.722388000e+02 3.006243407e+00 0.000000000e+00 0.000000000e+00 0.000000000e+00 3.006243407e+00 0.000000000e+00
6.066425473e+02 2.607371049e+00 0.000000000e+00 0.000000000e+00 0.000000000e+00 2.607371049e+00 0.000000000e+00
6.431146930e+02 2.184579115e+00 0.000000000e+00 0.000000000e+00 0.000000000e+00 2.184579115e+00 0.000000000e+00
6.817795920e+02 1.880522676e+00 0.000000000e+00 0.000000000e+00 0.000000000e+00 1.880522676e+00 0.000000000e+00
7.227690754e+02 1.545646463e+00 0.000000000e+00 0.000000000e+00 0.000000000e+00 1.545646463e+00 0.000000000e+00
7.662229003e+02 1.295537578e+00 0.000000000e+00 0.000000000e+00 0.000000000e+00 1.295537578e+00 0.000000000e+00
8.122892262e+02 1.087989291e+00 0.000000000e+00 0.000000000e+00 0.000000000e+00 1.087989291e+00 0.000000000e+00
8.611251200e+02 9.093390900e-01 0.000000000e+00 0.000000000e+00 0.000000000e+00 9.093390900e-01 0.000000000e+00
9.128970918e+02 7.555992336e-01 0.000000000e+00 0.000000000e+00 0.000000000e+00 7.555992336e-01 0.000000000e+00
9.677816625e+02 6.131111517e-01 0.000000000e+00 0.000000000e+00 0.000000000e+00 6.131111517e-01 0.000000000e+00
1.025965966e+03 5.420400914e-01 0.000000000e+00 0.000000000e+00 0.000000000e+00 5.420400914e-01 0.000000000e+00
1.087648385e+03 4.907059848e-01 0.000000000e+00 0.000000000e+00 0.000000000e+00 4.907059848e-01 0.000000000e+00
1.153039233e+03 4.582884963e-01 0.000000000e+00 0.000000000e+00 0.000000000e+00 4.582884963e-01 0.000000000e+00
1.222361464e+03 4.169134153e-01 0.000000000e+00 0.000000000e+00 0.000000000e+00 4.169134153e-01 0.000000000e+00
1.295851439e+03 3.791434724e-01 0.000000000e+00 0.000000000e+00 0.000000000e+00 3.791434724e-01 0.000000000e+00
1.373759727e+03 3.534508830e-01 0.000000000e+00 0.000000000e+00 0.000000000e+00 3.534508830e-01 0.000000000e+00
1.456351964e+03 3.269718428e-01 0.000000000e+00 0.000000000e+00 0.000000000e+00 3.269718428e-01 0.000000000e+00
1.543909754e+03 2.913315592e-01 0.000000000e+00 0.000000000e+00 0.000000000e+00 2.913315592e-01 0.000000000e+00
1.636731634e+03 2.652508786e-01 0.000000000e+00 0.000000000e+00 0.000000000e+00 2.652508786e-01 0.000000000e+00
1.735134087e+03 2.446574694e-01 0.000000000e+00 0.000000000e+00 0.000000000e+00 2.446574694e-01 0.000000000e+00
1.839452624e+03 2.158102968e-01 0.000000000e+00 0.000000000e+00 0.000000000e+00 2.158102968e-01 0.000000000e+00
1.950042929e+03 1.965033842e-01 0.000000000e+00 0.000000000e+00 0.000000000e+00 1.965033842e-01 0.000000000e+00
2.067282068e+03 1.802241854e-01 0.000000000e+00 0.000000000e+00 0.000000000e+00 1.802241854e-01 0.000000000e+00
2.191569778e+03 1.619798883e-01 0.000000000e+00 0.000000000e+00 0.000000000e+00 1.619798883e-01 0.000000000e+00
2.323329827e+03 1.486587583e-01 0.000000000e+00 0.000000000e+00 0.000000000e+00 1.486587583e-01 0.000000000e+00
2.463011464e+03 1.331917911e-01 0.000000000e+00 0.000000000e+00 0.000000000e+00 1.331917911e-01 0.000000000e+00
