# column 1: wavelength (micron)
# column 2: total flux; F_nu (Jy)
# column 3: transparent flux; F_nu (Jy)
# column 4: direct primary flux; F_nu (Jy)
# column 5: scattered primary flux; F_nu (Jy)
# column 6: direct secondary flux; F_nu (Jy)
# column 7: scattered secondary flux; F_nu (Jy)
9.000000000e-02 1.419246971e-05 3.405035359e-04 1.239409085e-05 1.798378856e-06 0.000000000e+00 0.000000000e+00
9.541091806e-02 7.797851229e-05 1.753324464e-03 6.719436889e-05 1.078414340e-05 0.000000000e+00 0.000000000e+00
1.011471476e-01 1.092882742e-04 2.094443387e-03 9.182967524e-05 1.745859901e-05 0.000000000e+00 0.000000000e+00
1.072282468e-01 1.493829225e-04 2.380366692e-03 1.218949222e-04 2.748800034e-05 0.000000000e+00 0.000000000e+00
1.136749497e-01 1.768409449e-04 2.373608283e-03 1.414541310e-04 3.538681384e-05 0.000000000e+00 0.000000000e+00
1.205092367e-01 1.703982792e-04 1.993963074e-03 1.343715954e-04 3.602668381e-05 0.000000000e+00 0.000000000e+00
1.277544101e-01 2.224536351e-04 2.298329787e-03 1.722440068e-04 5.020962836e-05 0.000000000e+00 0.000000000e+00
1.354351729e-01 2.539996834e-04 2.332742358e-03 1.941466272e-04 5.985305613e-05 0.000000000e+00 0.000000000e+00
1.435777131e-01 2.730810858e-04 2.246587193e-03 2.064986842e-04 6.658240160e-05 0.000000000e+00 0.000000000e+00
1.522097936e-01 3.032714303e-04 2.176089681e-03 2.217649966e-04 8.150643379e-05 0.000000000e+00 0.000000000e+00
1.613608460e-01 3.293460351e-04 2.101039768e-03 2.333213993e-04 9.602463584e-05 0.000000000e+00 0.000000000e+00
1.710620718e-01 3.455468711e-04 2.066674031e-03 2.385250425e-04 1.070218286e-04 0.000000000e+00 0.000000000e+00
1.813465479e-01 3.309875031e-04 2.026976131e-03 2.290339032e-04 1.019535999e-04 0.000000000e+00 0.000000000e+00
1.922493402e-01 2.781772272e-04 1.966150281e-03 1.995729870e-04 7.860424019e-05 0.000000000e+00 0.000000000e+00
2.038076228e-01 2.224393753e-04 1.885400411e-03 1.670265619e-04 5.541281341e-05 0.000000000e+00 0.000000000e+00
2.160608044e-01 2.125749204e-04 1.877806357e-03 1.613911546e-04 5.118376583e-05 0.000000000e+00 0.000000000e+00
2.290506634e-01 2.442200590e-04 1.794065397e-03 1.789082471e-04 6.531181194e-05 0.000000000e+00 0.000000000e+00
2.428214897e-01 3.015376050e-04 1.696429516e-03 2.095594783e-04 9.197812671e-05 0.000000000e+00 0.000000000e+00
2.574202362e-01 3.591659849e-04 1.666260830e-03 2.414309633e-04 1.177350215e-04 0.000000000e+00 0.000000000e+00
2.728966785e-01 4.120849744e-04 1.653318018e-03 2.770058579e-04 1.350791165e-04 0.000000000e+00 0.000000000e+00
2.893035848e-01 4.637372932e-04 1.682548166e-03 3.160494985e-04 1.476877947e-04 0.000000000e+00 0.000000000e+00
3.066968958e-01 5.032889976e-04 1.689188363e-03 3.466359610e-04 1.566530366e-04 0.000000000e+00 0.000000000e+00
3.251359155e-01 5.403518917e-04 1.676027317e-03 3.768912274e-04 1.634606643e-04 0.000000000e+00 0.000000000e+00
3.446835132e-01 5.815679742e-04 1.693126644e-03 4.097757038e-04 1.717922704e-04 0.000000000e+00 0.000000000e+00
3.654063382e-01 6.574852822e-04 1.795082503e-03 4.706885697e-04 1.867967124e-04 0.000000000e+00 0.000000000e+00
3.873750465e-01 1.066418953e-03 2.749373744e-03 7.757065575e-04 2.907123957e-04 0.000000000e+00 0.000000000e+00
4.106645425e-01 1.352883503e-03 3.286233985e-03 1.001128566e-03 3.517549371e-04 0.000000000e+00 0.000000000e+00
4.353542335e-01 1.402310867e-03 3.200759116e-03 1.053007690e-03 3.493031767e-04 0.000000000e+00 0.000000000e+00
4.615283011e-01 1.544861074e-03 3.340512221e-03 1.178502634e-03 3.663584400e-04 0.000000000e+00 0.000000000e+00
4.892759879e-01 1.558897183e-03 3.172518304e-03 1.206734421e-03 3.521627622e-04 0.000000000e+00 0.000000000e+00
5.186919022e-01 1.656414030e-03 3.212851254e-03 1.303494852e-03 3.529191783e-04 0.000000000e+00 0.000000000e+00
5.498763397e-01 1.753804139e-03 3.237755506e-03 1.407127573e-03 3.466765668e-04 0.000000000e+00 0.000000000e+00
5.829356266e-01 1.831265823e-03 3.239190677e-03 1.494297165e-03 3.369686582e-04 0.000000000e+00 0.000000000e+00
6.179824811e-01 1.939132961e-03 3.288267430e-03 1.607197268e-03 3.319356928e-04 0.000000000e+00 0.000000000e+00
6.551363985e-01 1.975046191e-03 3.221671433e-03 1.663960377e-03 3.110858145e-04 0.000000000e+00 0.000000000e+00
6.945240582e-01 2.101626213e-03 3.311214913e-03 1.796804629e-03 3.048215837e-04 0.000000000e+00 0.000000000e+00
7.362797556e-01 2.171238450e-03 3.306796377e-03 1.884445789e-03 2.867926603e-04 0.000000000e+00 0.000000000e+00
7.805458603e-01 2.222926196e-03 3.273522061e-03 1.958038318e-03 2.648878771e-04 0.000000000e+00 0.000000000e+00
8.274733014e-01 2.274080372e-03 3.246200908e-03 2.026449769e-03 2.476306037e-04 0.000000000e+00 0.000000000e+00
8.772220817e-01 2.372538047e-03 3.293094050e-03 2.139022537e-03 2.335155095e-04 0.000000000e+00 0.000000000e+00
9.299618239e-01 2.435914945e-03 3.294194267e-03 2.220390057e-03 2.155248882e-04 0.000000000e+00 0.000000000e+00
9.858723487e-01 2.427944674e-03 3.199429911e-03 2.236119703e-03 1.918249702e-04 1.575336757e-292 6.658205233e-294
1.045144288e+00 2.404700531e-03 3.095712422e-03 2.237752871e-03 1.669476603e-04 4.398824534e-277 3.655615740e-278
1.107979733e+00 2.335056224e-03 2.943040179e-03 2.190273227e-03 1.447829960e-04 2.182232875e-260 1.115565998e-261
1.174592928e+00 2.260852787e-03 2.797980820e-03 2.135707610e-03 1.251451771e-04 1.869094026e-247 7.004413935e-249
1.245210996e+00 2.225257220e-03 2.704534400e-03 2.116085157e-03 1.091720623e-04 2.261410720e-232 6.738941517e-234
1.320074714e+00 2.247404933e-03 2.686507405e-03 2.151592888e-03 9.581204424e-05 3.077117800e-218 1.188886660e-219
1.399439338e+00 2.255215564e-03 2.658009917e-03 2.170905827e-03 8.430973784e-05 1.216331089e-205 7.230732051e-207
1.483575466e+00 2.231818250e-03 2.594147838e-03 2.159096696e-03 7.272155424e-05 1.616887880e-194 4.908016782e-196
1.572769969e+00 2.294323524e-03 2.634626905e-03 2.228772812e-03 6.555071239e-05 4.562755864e-182 1.107829042e-183
1.667326963e+00 2.323747678e-03 2.640848090e-03 2.265967455e-03 5.778022287e-05 1.392302317e-172 1.335153080e-174
1.767568847e+00 2.228948181e-03 2.504383279e-03 2.181053035e-03 4.789514578e-05 2.338625723e-164 4.123472606e-166
1.873837405e+00 2.075614421e-03 2.312754408e-03 2.037874796e-03 3.773962526e-05 2.089297071e-153 3.782658947e-155
1.986494968e+00 1.970519363e-03 2.175539328e-03 1.939807160e-03 3.071220236e-05 1.536971924e-145 2.414676206e-147
2.105925651e+00 1.818904773e-03 1.992312965e-03 1.794524860e-03 2.437991318e-05 1.102763735e-135 2.791174426e-137
2.232536664e+00 1.659654789e-03 1.806141886e-03 1.640673071e-03 1.898171827e-05 1.127628919e-128 7.505515361e-131
2.366759696e+00 1.530369941e-03 1.653738125e-03 1.515483392e-03 1.488654856e-05 7.578228884e-122 7.781481551e-124
2.509052394e+00 1.303032244e-03 1.398891641e-03 1.292449087e-03 1.058315660e-05 2.378922690e-114 1.304695298e-116
2.659899915e+00 1.303346773e-03 1.393074228e-03 1.294468028e-03 8.878745073e-06 2.012380425e-107 1.224918625e-109
2.819816587e+00 1.273051662e-03 1.353709547e-03 1.265858646e-03 7.193016547e-06 1.970131971e-101 5.933030790e-104
2.989347660e+00 1.065995318e-03 1.128213513e-03 1.060861783e-03 5.133535248e-06 2.851039704e-95 1.654247581e-97
3.169071162e+00 9.602689128e-04 1.012296338e-03 9.564651140e-04 3.803798816e-06 1.680255476e-90 7.232735585e-93
3.359599877e+00 9.373395540e-04 9.836341317e-04 9.342863360e-04 3.053218010e-06 1.460937898e-84 1.055380971e-86
3.561583429e+00 8.922232601e-04 9.333877492e-04 8.898502537e-04 2.373006411e-06 4.456528151e-80 1.302348953e-82
3.775710497e+00 7.606795732e-04 7.930959224e-04 7.590154436e-04 1.664129566e-06 3.182660421e-75 6.998956190e-78
4.002711165e+00 7.103611207e-04 7.383084350e-04 7.090784693e-04 1.282651439e-06 1.529082797e-70 2.014896605e-73
4.243359411e+00 6.753720174e-04 7.000430745e-04 6.743914286e-04 9.805888541e-07 8.627016941e-67 1.095973590e-69
4.498475745e+00 5.701376487e-04 5.895341732e-04 5.694630877e-04 6.745609632e-07 6.681480466e-63 6.931413967e-66
4.768930007e+00 5.053126291e-04 5.213417897e-04 5.048310066e-04 4.816225428e-07 3.740710029e-59 3.848545294e-62
5.055644335e+00 4.527240064e-04 4.660943506e-04 4.523815060e-04 3.425003740e-07 1.207106462e-55 8.992521545e-59
5.359596304e+00 4.184685260e-04 4.300478434e-04 4.182157076e-04 2.528183982e-07 1.952670460e-52 1.154311211e-55
5.681822265e+00 3.846026396e-04 3.947154222e-04 3.844193368e-04 1.833028386e-07 3.893213778e-49 1.762925184e-52
6.023420872e+00 3.568357596e-04 3.658296508e-04 3.567030036e-04 1.327560596e-07 2.742507189e-46 1.043867766e-49
6.385556837e+00 3.194153046e-04 3.270882197e-04 3.193225984e-04 9.270621600e-08 1.483769427e-43 4.487509658e-47
6.769464890e+00 2.885987422e-04 2.953333666e-04 2.885348869e-04 6.385529465e-08 5.807570767e-41 1.343330168e-44
7.176453999e+00 2.584543574e-04 2.644262765e-04 2.584126667e-04 4.169070666e-08 1.802986360e-38 2.993883072e-42
7.607911827e+00 2.311171682e-04 2.378348175e-04 2.310906291e-04 2.653907030e-08 4.236183892e-36 5.162564486e-40
8.065309466e+00 2.063061301e-04 2.171636194e-04 2.062896927e-04 1.643738548e-08 6.832472101e-34 5.426118913e-38
8.550206451e+00 1.764468161e-04 1.932748223e-04 1.764366171e-04 1.019908084e-08 7.838209801e-32 4.043566992e-36
9.064256079e+00 1.581501896e-04 1.802188086e-04 1.581425657e-04 7.623942076e-09 7.143020028e-30 3.770607012e-34
9.609211044e+00 1.417779513e-04 1.653913848e-04 1.417715495e-04 6.401813951e-09 5.101088471e-28 1.934915625e-32
1.018692942e+01 1.286830781e-04 1.475687870e-04 1.286788226e-04 4.255485399e-09 2.974028884e-26 8.352755863e-31
1.079938098e+01 1.125717373e-04 1.255961826e-04 1.125696657e-04 2.071600645e-09 1.599437203e-24 2.354242100e-29
1.144865393e+01 1.022823911e-04 1.113499993e-04 1.022818809e-04 5.101897731e-10 5.939100540e-23 6.500509467e-29
1.213696202e+01 9.024323834e-05 9.646171374e-05 9.024321296e-05 2.538060900e-11 1.839877223e-21 2.782845137e-29
1.286665210e+01 7.988060730e-05 8.404417590e-05 7.988060730e-05 0.000000000e+00 4.629745720e-20 0.000000000e+00
1.364021210e+01 7.042086925e-05 7.333184184e-05 7.042086925e-05 0.000000000e+00 1.036356814e-18 0.000000000e+00
1.446027954e+01 6.102591193e-05 6.340316421e-05 6.102591193e-05 0.000000000e+00 1.869523156e-17 0.000000000e+00
1.532965052e+01 5.331128789e-05 5.565481012e-05 5.331128789e-05 0.000000000e+00 2.973615390e-16 0.000000000e+00
1.625128922e+01 4.582239340e-05 4.814277787e-05 4.582239340e-05 0.000000000e+00 4.238312029e-15 0.000000000e+00
1.722833804e+01 3.966687262e-05 4.196684263e-05 3.966687257e-05 0.000000000e+00 5.375043286e-14 0.000000000e+00
1.826412832e+01 3.376169170e-05 3.582249670e-05 3.376169115e-05 0.000000000e+00 5.502662876e-13 0.000000000e+00
1.936219168e+01 3.013354144e-05 3.186498105e-05 3.013353637e-05 0.000000000e+00 5.067678060e-12 0.000000000e+00
2.052627204e+01 2.660001108e-05 2.797915846e-05 2.659996890e-05 0.000000000e+00 4.217447399e-11 0.000000000e+00
2.176033844e+01 2.367541980e-05 2.476090161e-05 2.367512713e-05 0.000000000e+00 2.926617936e-10 0.000000000e+00
2.306859853e+01 2.108805000e-05 2.194502370e-05 2.108620200e-05 0.000000000e+00 1.847993362e-09 0.000000000e+00
2.445551294e+01 1.881245286e-05 1.948750749e-05 1.880190152e-05 0.000000000e+00 1.055133652e-08 0.000000000e+00
2.592581045e+01 1.721557701e-05 1.772943617e-05 1.716143262e-05 0.000000000e+00 5.414439170e-08 0.000000000e+00
2.748450419e+01 1.542298195e-05 1.563580852e-05 1.517530805e-05 0.000000000e+00 2.476739051e-07 0.000000000e+00
2.913690863e+01 1.435761690e-05 1.368858746e-05 1.332151591e-05 0.000000000e+00 1.036100991e-06 0.000000000e+00
3.088865780e+01 1.594196189e-05 1.233235423e-05 1.203240236e-05 0.000000000e+00 3.909559530e-06 0.000000000e+00
3.274572442e+01 2.435542599e-05 1.124105975e-05 1.098957100e-05 0.000000000e+00 1.336585499e-05 0.000000000e+00
3.471444033e+01 5.264590357e-05 9.915260916e-06 9.713435722e-06 0.000000000e+00 4.293246785e-05 0.000000000e+00
3.680151802e+01 1.302857212e-04 8.745754771e-06 8.583119879e-06 0.000000000e+00 1.217026014e-04 0.000000000e+00
3.901407356e+01 3.358235169e-04 7.809616859e-06 7.676846264e-06 0.000000000e+00 3.281466706e-04 0.000000000e+00
4.135965084e+01 8.205622390e-04 6.975392754e-06 6.869240048e-06 0.000000000e+00 8.136929990e-04 0.000000000e+00
4.384624730e+01 1.897619025e-03 6.245604318e-06 6.159525822e-06 0.000000000e+00 1.891459499e-03 0.000000000e+00
4.648234121e+01 3.996277599e-03 5.472254757e-06 5.403976246e-06 0.000000000e+00 3.990873622e-03 0.000000000e+00
4.927692053e+01 8.176763238e-03 4.872554423e-06 4.818884932e-06 0.000000000e+00 8.171944353e-03 0.000000000e+00
5.223951363e+01 1.567313354e-02 4.364411500e-06 4.320988116e-06 0.000000000e+00 1.566881256e-02 0.000000000e+00
5.538022172e+01 2.817168763e-02 3.904272438e-06 3.869652089e-06 0.000000000e+00 2.816781798e-02 0.000000000e+00
5.870975330e+01 4.890070091e-02 3.476365781e-06 3.449055029e-06 0.000000000e+00 4.889725186e-02 0.000000000e+00
6.223946068e+01 8.079168661e-02 3.077364606e-06 3.055767253e-06 0.000000000e+00 8.078863084e-02 0.000000000e+00
6.598137870e+01 1.267802391e-01 2.735726418e-06 2.718636537e-06 0.000000000e+00 1.267775205e-01 0.000000000e+00
6.994826574e+01 1.909695359e-01 2.436062028e-06 2.422642419e-06 0.000000000e+00 1.909671132e-01 0.000000000e+00
7.415364723e+01 2.774084117e-01 2.142768152e-06 2.132351693e-06 0.000000000e+00 2.774062793e-01 0.000000000e+00
7.861186177e+01 3.864312524e-01 1.935885347e-06 1.927495675e-06 0.000000000e+00 3.864293249e-01 0.000000000e+00
8.333811002e+01 5.229963188e-01 1.700781379e-06 1.694245148e-06 0.000000000e+00 5.229946245e-01 0.000000000e+00
8.834850651e+01 6.842131811e-01 1.506008800e-06 1.500902685e-06 0.000000000e+00 6.842116802e-01 0.000000000e+00
9.366013462e+01 8.693760555e-01 1.346385191e-06 1.342311156e-06 0.000000000e+00 8.693747132e-01 0.000000000e+00
9.929110477e+01 1.071788583e+00 7.687131653e-07 7.666127439e-07 0.000000000e+00 1.071787817e+00 0.000000000e+00
1.052606162e+02 1.285101462e+00 0.000000000e+00 0.000000000e+00 0.000000000e+00 1.285101462e+00 0.000000000e+00
1.115890226e+02 1.504617813e+00 0.000000000e+00 0.000000000e+00 0.000000000e+00 1.504617813e+00 0.000000000e+00
1.182979010e+02 1.719524319e+00 0.000000000e+00 0.000000000e+00 0.000000000e+00 1.719524319e+00 0.000000000e+00
1.254101260e+02 1.927170080e+00 0.000000000e+00 0.000000000e+00 0.000000000e+00 1.927170080e+00 0.000000000e+00
1.329499472e+02 2.109764198e+00 0.000000000e+00 0.000000000e+00 0.000000000e+00 2.109764198e+00 0.000000000e+00
1.409430725e+02 2.253213350e+00 0.000000000e+00 0.000000000e+00 0.000000000e+00 2.253213350e+00 0.000000000e+00
1.494167549e+02 2.365898100e+00 0.000000000e+00 0.000000000e+00 0.000000000e+00 2.365898100e+00 0.000000000e+00
1.583998862e+02 2.437105932e+00 0.000000000e+00 0.000000000e+00 0.000000000e+00 2.437105932e+00 0.000000000e+00
1.679230951e+02 2.467748030e+00 0.000000000e+00 0.000000000e+00 0.000000000e+00 2.467748030e+00 0.000000000e+00
1.780188519e+02 2.453364713e+00 0.000000000e+00 0.000000000e+00 0.000000000e+00 2.453364713e+00 0.000000000e+00
1.887215788e+02 2.415260145e+00 0.000000000e+00 0.000000000e+00 0.000000000e+00 2.415260145e+00 0.000000000e+00
2.000677676e+02 2.337077429e+00 0.000000000e+00 0.000000000e+00 0.000000000e+00 2.337077429e+00 0.000000000e+00
2.120961043e+02 2.224123234e+00 0.000000000e+00 0.000000000e+00 0.000000000e+00 2.224123234e+00 0.000000000e+00
2.248476003e+02 2.088620721e+00 0.000000000e+00 0.000000000e+00 0.000000000e+00 2.088620721e+00 0.000000000e+00
2.383657330e+02 1.961486453e+00 0.000000000e+00 0.000000000e+00 0.000000000e+00 1.961486453e+00 0.000000000e+00
2.526965935e+02 1.817485765e+00 0.000000000e+00 0.000000000e+00 0.000000000e+00 1.817485765e+00 0.000000000e+00
2.678890442e+02 1.648182860e+00 0.000000000e+00 0.000000000e+00 0.000000000e+00 1.648182860e+00 0.000000000e+00
2.839948849e+02 1.493851256e+00 0.000000000e+00 0.000000000e+00 0.000000000e+00 1.493851256e+00 0.000000000e+00
3.010690299e+02 1.334324186e+00 0.000000000e+00 0.000000000e+00 0.000000000e+00 1.334324186e+00 0.000000000e+00
3.191696949e+02 1.184840118e+00 0.000000000e+00 0.000000000e+00 0.000000000e+00 1.184840118e+00 0.000000000e+00
3.383585957e+02 1.046335103e+00 0.000000000e+00 0.000000000e+00 0.000000000e+00 1.046335103e+00 0.000000000e+00
3.587011583e+02 9.203859743e-01 0.000000000e+00 0.000000000e+00 0.000000000e+00 9.203859743e-01 0.000000000e+00
3.802667425e+02 7.978207660e-01 0.000000000e+00 0.000000000e+00 0.000000000e+00 7.978207660e-01 0.000000000e+00
4.031288779e+02 6.884168208e-01 0.000000000e+00 0.000000000e+00 0.000000000e+00 6.884168208e-01 0.000000000e+00
4.273655148e+02 5.913220707e-01 0.000000000e+00 0.000000000e+00 0.000000000e+00 5.913220707e-01 0.000000000e+00
4.530592901e+02 5.082886171e-01 0.000000000e+00 0.000000000e+00 0.000000000e+00 5.082886171e-01 0.000000000e+00
4.802978090e+02 4.305795823e-01 0.000000000e+00 0.000000000e+00 0.000000000e+00 4.305795823e-01 0.000000000e+00
5.091739433e+02 3.639538029e-01 0.000000000e+00 0.000000000e+00 0.000000000e+00 3.639538029e-01 0.000000000e+00
5.397861487e+02 3.075914097e-01 0.000000000e+00 0.000000000e+00 0.000000000e+00 3.075914097e-01 0.000000000e+00
5.722388000e+02 2.570245853e-01 0.000000000e+00 0.000000000e+00 0.000000000e+00 2.570245853e-01 0.000000000e+00
6.066425473e+02 2.171066520e-01 0.000000000e+00 0.000000000e+00 0.000000000e+00 2.171066520e-01 0.000000000e+00
6.431146930e+02 1.812330428e-01 0.000000000e+00 0.000000000e+00 0.000000000e+00 1.812330428e-01 0.000000000e+00
6.817795920e+02 1.496619283e-01 0.000000000e+00 0.000000000e+00 0.000000000e+00 1.496619283e-01 0.000000000e+00
7.227690754e+02 1.247683118e-01 0.000000000e+00 0.000000000e+00 0.000000000e+00 1.247683118e-01 0.000000000e+00
7.662229003e+02 1.022124937e-01 0.000000000e+00 0.000000000e+00 0.000000000e+00 1.022124937e-01 0.000000000e+00
8.122892262e+02 8.376103197e-02 0.000000000e+00 0.000000000e+00 0.000000000e+00 8.376103197e-02 0.000000000e+00
8.611251200e+02 6.955355238e-02 0.000000000e+00 0.000000000e+00 0.000000000e+00 6.955355238e-02 0.000000000e+00
9.128970918e+02 5.679341766e-02 0.000000000e+00 0.000000000e+00 0.000000000e+00 5.679341766e-02 0.000000000e+00
9.677816625e+02 4.679851311e-02 0.000000000e+00 0.000000000e+00 0.000000000e+00 4.679851311e-02 0.000000000e+00
1.025965966e+03 4.035725041e-02 0.000000000e+00 0.000000000e+00 0.000000000e+00 4.035725041e-02 0.000000000e+00
1.087648385e+03 3.653773334e-02 0.000000000e+00 0.000000000e+00 0.000000000e+00 3.653773334e-02 0.000000000e+00
1.153039233e+03 3.324704439e-02 0.000000000e+00 0.000000000e+00 0.000000000e+00 3.324704439e-02 0.000000000e+00
1.222361464e+03 3.018453694e-02 0.000000000e+00 0.000000000e+00 0.000000000e+00 3.018453694e-02 0.000000000e+00
1.295851439e+03 2.764723857e-02 0.000000000e+00 0.000000000e+00 0.000000000e+00 2.764723857e-02 0.000000000e+00
1.373759727e+03 2.512076052e-02 0.000000000e+00 0.000000000e+00 0.000000000e+00 2.512076052e-02 0.000000000e+00
1.456351964e+03 2.290762845e-02 0.000000000e+00 0.000000000e+00 0.000000000e+00 2.290762845e-02 0.000000000e+00
1.543909754e+03 2.075120130e-02 0.000000000e+00 0.000000000e+00 0.000000000e+00 2.075120130e-02 0.000000000e+00
1.636731634e+03 1.885272763e-02 0.000000000e+00 0.000000000e+00 0.000000000e+00 1.885272763e-02 0.000000000e+00
1.735134087e+03 1.716076008e-02 0.000000000e+00 0.000000000e+00 0.000000000e+00 1.716076008e-02 0.000000000e+00
1.839452624e+03 1.530801844e-02 0.000000000e+00 0.000000000e+00 0.000000000e+00 1.530801844e-02 0.000000000e+00
1.950042929e+03 1.394988891e-02 0.000000000e+00 0.000000000e+00 0.000000000e+00 1.394988891e-02 0.000000000e+00
2.067282068e+03 1.248272582e-02 0.000000000e+00 0.000000000e+00 0.000000000e+00 1.248272582e-02 0.000000000e+00
2.191569778e+03 1.129894708e-02 0.000000000e+00 0.000000000e+00 0.000000000e+00 1.129894708e-02 0.000000000e+00
2.323329827e+03 1.002417639e-02 0.000000000e+00 0.000000000e+00 0.000000000e+00 1.002417639e-02 0.000000000e+00
